Amplitude Settings: 480.00, 480.00
Frequency Settings: 1.50,1.10
Bias Setting: 960
================================================================
Time [s]Pos [deg]Acutal Pos [deg]Velocity [RPM]Yaw [deg]Current [mA]
2.38, 1051.56, 90.11, -3.21, -20.24, 12.00
2.44, 1266.07, 91.26, 2.52, -23.30, 194.00
2.49, 1405.79, 94.16, 7.79, -19.55, 449.00
2.54, 1436.57, 95.92, 5.95, -9.49, 475.00
2.60, 1337.33, 97.94, 5.95, 10.15, 244.00
2.65, 1149.12, 99.79, 5.72, 32.11, 14.00
2.71, 926.75, 100.58, 3.21, 52.93, -205.00
2.76, 757.45, 98.65, -4.58, 64.90, -519.00
2.81, 615.02, 96.71, -6.41, 65.39, -803.00
2.87, 518.37, 93.02, -10.53, 55.74, -858.00
2.92, 480.21, 86.59, -19.24, 41.68, -600.00
2.97, 507.00, 76.91, -29.77, 30.12, -305.00
3.03, 593.90, 67.58, -28.85, 15.78, -63.00
3.08, 729.37, 61.95, -19.47, -1.79, 23.00
3.13, 895.45, 60.46, -6.18, -12.20, 170.00
3.18, 1108.98, 63.89, 10.08, -8.99, 363.00
3.24, 1327.39, 74.36, 28.85, 3.93, 428.00
3.30, 1430.47, 87.21, 39.39, 16.04, 332.00
3.35, 1418.58, 100.23, 39.85, 24.83, 143.00
3.40, 1294.63, 108.77, 28.17, 27.33, 11.00
3.46, 1084.54, 111.14, 9.39, 32.98, -133.00
3.51, 876.98, 108.50, -6.64, 30.65, -428.00
3.56, 713.16, 103.49, -14.89, 20.33, -510.00
3.62, 582.09, 92.75, -31.60, 5.93, -403.00
3.67, 501.16, 78.94, -41.68, -4.66, -258.00
3.72, 481.12, 66.26, -40.08, -10.83, -121.00
3.78, 526.03, 57.46, -28.85, -11.30, -45.00
3.83, 638.00, 53.86, -11.45, -7.18, 15.00
3.89, 786.86, 55.09, 2.06, -0.05, 76.00
3.94, 958.69, 59.31, 11.91, 11.94, 231.00
3.99, 1188.35, 64.24, 15.34, 22.22, 552.00
4.05, 1365.13, 70.14, 17.86, 43.88, 850.00
4.11, 1439.67, 75.59, 14.20, 68.11, 968.00
4.16, 1370.20, 80.26, 14.20, 89.80, 655.00
4.22, 1200.67, 84.39, 13.05, 110.67, 244.00
4.27, 972.34, 86.06, 5.95, 131.34, -11.00
4.32, 796.56, 86.94, 2.98, 138.99, -148.00
4.38, 645.75, 85.18, -3.89, 140.57, -400.00
4.43, 535.09, 82.54, -8.02, 136.37, -486.00
4.50, 480.01, 74.80, -18.32, 127.92, -361.00
4.56, 516.77, 66.53, -23.82, 120.95, -129.00
4.61, 619.10, 59.49, -22.21, 114.48, -11.00
4.67, 768.81, 56.41, -9.85, 113.35, 98.00
4.72, 949.14, 58.52, 5.50, 115.37, 181.00
4.78, 1188.84, 67.67, 26.34, 124.82, 277.00
4.84, 1367.83, 82.72, 43.05, 144.33, 174.00
4.89, 1439.82, 99.62, 49.69, 166.88, 70.00
4.95, 1381.22, 113.26, 40.99, 182.15, 1.00
5.00, 1211.85, 118.62, 18.09, 180.90, -86.00
5.06, 971.79, 114.58, -10.53, 165.09, -226.00
5.12, 774.55, 102.70, -31.83, 144.32, -248.00
5.17, 621.16, 87.74, -43.28, 126.60, -168.00
5.23, 517.90, 72.16, -46.03, 115.04, -109.00
5.29, 480.04, 60.28, -36.87, 108.79, -78.00
5.34, 511.99, 53.94, -19.92, 104.35, -51.00
5.40, 610.16, 53.42, -2.98, 98.58, 8.00
5.45, 760.09, 55.35, 5.27, 90.98, 52.00
5.51, 936.28, 60.90, 15.11, 85.45, 124.00
5.56, 1173.26, 70.58, 28.17, 83.20, 214.00
5.62, 1360.81, 83.51, 38.24, 84.17, 213.00
5.68, 1439.01, 98.74, 44.65, 81.53, 107.00
5.73, 1389.35, 112.20, 40.53, 76.18, 2.00
5.79, 1203.63, 118.80, 18.09, 68.91, -111.00
5.85, 962.19, 115.90, -7.10, 65.77, -295.00
5.90, 780.31, 104.63, -32.29, 61.20, -229.00
5.96, 627.99, 88.00, -48.09, 54.17, -117.00
6.01, 521.70, 71.98, -47.63, 49.69, -98.00
6.07, 480.26, 60.10, -36.41, 50.10, -78.00
6.13, 508.65, 54.03, -19.24, 53.61, -58.00
6.18, 603.69, 53.50, -2.75, 55.04, -12.00
6.24, 751.45, 55.70, 5.95, 53.04, 32.00
6.29, 926.75, 62.48, 18.55, 50.70, 64.00
6.35, 1161.52, 73.57, 32.29, 50.99, 124.00
6.41, 1353.50, 86.86, 38.93, 52.47, 161.00
6.47, 1439.53, 101.29, 39.62, 50.80, 121.00
6.52, 1387.06, 111.76, 31.37, 51.31, 24.00
6.58, 1218.58, 116.69, 15.80, 54.68, -71.00
6.63, 979.74, 116.16, -0.46, 51.22, -416.00
6.69, 795.42, 110.88, -14.89, 43.31, -484.00
6.74, 637.40, 99.53, -32.29, 34.35, -439.00
6.80, 527.11, 85.45, -40.99, 25.92, -326.00
6.85, 481.06, 71.98, -39.85, 21.28, -211.00
6.91, 504.43, 61.86, -31.37, 21.28, -95.00
6.97, 595.20, 56.76, -16.49, 22.71, -25.00
7.02, 736.99, 56.58, -1.60, 23.82, 32.00
7.08, 933.77, 62.48, 15.11, 24.57, 99.00
7.14, 1166.11, 72.25, 29.08, 24.71, 156.00
7.19, 1356.38, 87.21, 43.05, 27.51, 120.00
7.25, 1438.78, 103.75, 48.78, 33.66, 27.00
7.30, 1392.85, 118.18, 43.28, 39.03, 0.00
7.36, 1233.19, 125.40, 23.59, 41.81, -201.00
7.42, 997.25, 123.99, -2.52, 39.10, -425.00
7.47, 804.42, 113.96, -27.71, 33.63, -426.00
7.53, 647.04, 99.18, -43.51, 29.74, -319.00
7.58, 532.82, 82.90, -47.86, 27.02, -250.00
7.64, 482.09, 68.64, -42.59, 24.15, -152.00
7.69, 500.54, 59.22, -29.77, 21.14, -78.00
7.75, 595.46, 55.18, -11.45, 17.53, -20.00
7.81, 740.29, 56.32, 2.52, 18.63, 23.00
7.86, 914.33, 62.13, 16.03, 18.83, 86.00
7.92, 1145.97, 69.52, 21.98, 26.04, 353.00
7.98, 1340.78, 77.44, 23.13, 38.30, 414.00
8.03, 1436.15, 92.05, 41.91, 51.00, 190.00
8.09, 1401.92, 107.80, 46.94, 54.70, 2.00
8.14, 1251.04, 118.62, 33.43, 51.04, -103.00
8.20, 1019.21, 120.47, 7.79, 42.20, -433.00
8.25, 823.00, 114.22, -16.72, 33.74, -564.00
8.31, 659.49, 104.81, -28.40, 17.09, -464.00
8.37, 532.64, 85.36, -51.30, -4.16, -222.00
8.43, 481.76, 67.58, -52.90, -14.32, -81.00
8.48, 500.66, 55.18, -38.93, -22.29, -14.00
8.54, 587.22, 49.54, -18.32, -22.85, 15.00
8.59, 728.93, 49.54, -1.14, -14.90, 111.00
8.65, 901.54, 54.38, 12.37, -12.82, 168.00
8.70, 1129.67, 65.30, 31.83, -2.98, 219.00
8.76, 1329.85, 80.87, 45.34, 5.51, 193.00
8.82, 1433.61, 96.98, 48.09, 9.83, 146.00
8.87, 1410.07, 109.38, 37.33, 11.04, 40.00
8.93, 1264.80, 116.07, 21.07, 14.43, -38.00
8.98, 1036.58, 116.42, 2.75, 10.03, -318.00
9.04, 819.44, 111.67, -12.60, -4.78, -500.00
9.10, 659.18, 100.50, -31.14, -22.29, -472.00
9.15, 540.25, 86.94, -40.30, -36.63, -389.00
9.21, 483.82, 74.36, -37.78, -48.36, -266.00
9.27, 496.23, 64.68, -29.77, -53.93, -154.00
9.32, 575.25, 59.58, -16.26, -59.50, -49.00
9.38, 712.04, 58.70, -3.43, -60.40, 17.00
9.43, 882.23, 60.90, 5.50, -53.81, 119.00
9.49, 1104.55, 66.18, 14.43, -49.81, 279.00
9.54, 1312.34, 77.53, 32.52, -34.05, 284.00
9.60, 1428.56, 93.90, 47.63, -22.60, 137.00
9.67, 1383.95, 113.70, 42.59, -28.87, 0.00
9.73, 1212.90, 121.26, 23.59, -38.52, -164.00
9.78, 973.02, 120.21, -1.37, -56.45, -434.00
9.84, 787.70, 112.55, -21.30, -84.46, -623.00
9.90, 631.34, 100.06, -35.49, -110.59, -351.00
9.95, 523.61, 81.22, -54.96, -128.94, -142.00
10.01, 480.43, 64.15, -51.07, -138.22, -51.00
10.07, 509.34, 52.89, -33.89, -139.53, -14.00
10.12, 605.04, 49.54, -11.68, -136.71, 17.00
10.18, 753.26, 51.39, 4.35, -131.86, 90.00
10.23, 932.07, 56.06, 13.51, -125.47, 186.00
10.30, 1188.23, 68.64, 33.66, -114.17, 240.00
10.35, 1367.47, 84.22, 46.26, -103.39, 207.00
10.40, 1439.64, 99.09, 45.11, -96.94, 131.00
10.46, 1385.80, 111.32, 36.41, -94.27, 10.00
10.52, 1220.08, 117.66, 20.61, -90.63, -97.00
10.57, 981.51, 117.74, 1.83, -95.66, -427.00
10.63, 796.65, 111.23, -17.86, -106.91, -474.00
10.68, 640.84, 98.03, -37.78, -125.26, -379.00
10.74, 530.60, 82.98, -44.65, -137.04, -305.00
10.79, 481.39, 70.22, -38.70, -146.50, -199.00
10.85, 503.00, 61.34, -27.48, -149.59, -110.00
10.92, 628.50, 56.85, -9.39, -153.64, -14.00
10.98, 780.97, 57.11, 0.00, -153.55, 74.00
11.03, 958.99, 60.81, 9.85, -149.67, 155.00
11.09, 1196.63, 69.52, 25.88, -141.02, 279.00
11.14, 1372.46, 84.57, 43.05, -126.35, 197.00
11.20, 1439.98, 101.20, 49.92, -118.95, 67.00
11.25, 1379.10, 114.66, 40.53, -121.57, 0.00
11.31, 1208.11, 121.35, 21.98, -130.18, -151.00
11.36, 971.92, 119.77, -2.75, -142.91, -421.00
11.42, 786.95, 112.82, -19.69, -161.91, -588.00
11.47, 633.18, 99.26, -38.93, -186.77, -325.00
11.53, 519.24, 79.20, -55.19, -203.90, -144.00
11.59, 480.18, 63.62, -47.17, -215.02, -64.00
11.64, 509.62, 54.38, -29.08, -216.94, -37.00
11.70, 605.59, 51.74, -9.16, -218.07, 11.00
11.75, 751.00, 53.50, 4.12, -215.64, 67.00
11.81, 926.25, 57.55, 11.45, -208.72, 161.00
11.86, 1156.78, 67.23, 28.40, -199.74, 248.00
11.92, 1350.49, 82.54, 43.97, -187.54, 194.00
11.97, 1437.49, 98.82, 48.78, -178.24, 115.00
12.03, 1399.04, 111.32, 38.47, -177.71, 14.00
12.09, 1241.58, 118.01, 21.07, -176.97, -77.00
12.15, 989.45, 116.78, -2.52, -178.03, -331.00
12.20, 799.01, 111.14, -16.72, -192.63, -515.00
12.26, 642.72, 98.30, -35.95, -211.77, -357.00
12.31, 531.73, 82.28, -48.09, -227.67, -234.00
12.37, 481.59, 67.85, -43.05, -237.41, -135.00
12.42, 501.25, 58.43, -29.77, -241.30, -66.00
12.48, 586.40, 54.03, -14.20, -242.30, -15.00
12.53, 727.79, 53.68, -1.83, -240.92, 61.00
12.59, 900.24, 57.02, 8.93, -236.78, 135.00
12.64, 1123.76, 66.00, 25.65, -229.94, 221.00
12.70, 1325.80, 80.43, 42.59, -216.26, 191.00
12.76, 1435.38, 98.38, 49.46, -206.84, 99.00
12.81, 1405.84, 111.76, 40.30, -209.13, 13.00
12.87, 1255.60, 118.71, 22.21, -212.62, -73.00
12.92, 1029.40, 118.54, 1.14, -218.99, -307.00
12.98, 830.24, 112.46, -17.17, -233.85, -533.00
13.03, 668.03, 101.29, -31.60, -258.30, -368.00
13.09, 545.82, 84.48, -49.69, -275.62, -205.00
13.15, 485.37, 68.29, -48.09, -285.26, -103.00
13.20, 492.68, 57.46, -34.12, -287.81, -50.00
13.26, 568.62, 52.45, -16.26, -287.09, -12.00
13.32, 716.61, 52.01, -1.60, -283.65, 68.00
13.37, 887.49, 55.44, 9.16, -278.04, 136.00
13.43, 1107.16, 64.94, 27.02, -269.74, 207.00
13.48, 1314.19, 79.55, 43.05, -257.92, 193.00
13.54, 1429.15, 95.92, 49.24, -249.80, 121.00
13.59, 1417.80, 109.56, 41.22, -250.81, 31.00
13.65, 1286.18, 117.22, 23.82, -250.00, -36.00
13.70, 1068.85, 117.66, 3.21, -251.64, -219.00
13.76, 855.59, 112.29, -15.11, -261.29, -497.00
13.81, 689.20, 102.52, -27.48, -281.98, -404.00
13.87, 561.48, 87.03, -45.34, -299.92, -269.00
13.93, 487.46, 70.66, -45.34, -309.66, -147.00
13.98, 489.91, 60.02, -33.66, -313.01, -75.00
14.04, 559.48, 54.03, -18.55, -311.97, -18.00
14.10, 688.95, 53.06, -4.12, -312.47, 35.00
14.15, 855.29, 54.47, 3.66, -311.46, 183.00
14.20, 1064.04, 59.40, 13.51, -300.71, 496.00
14.26, 1282.54, 63.89, 13.74, -289.11, 912.00
14.31, 1416.30, 70.31, 18.55, -267.71, 851.00
14.37, 1429.23, 79.82, 27.94, -240.19, 690.00
14.43, 1317.50, 89.94, 30.46, -212.68, 162.00
14.48, 1111.84, 101.38, 33.66, -192.47, -62.00
14.56, 829.46, 106.66, 8.24, -191.76, -526.00
14.61, 667.40, 100.14, -16.95, -199.72, -451.00
14.66, 547.10, 85.98, -41.45, -206.66, -222.00
14.72, 485.75, 68.38, -51.75, -206.55, -63.00
14.77, 492.11, 55.62, -40.30, -201.08, -29.00
14.83, 567.17, 51.30, -14.89, -195.91, -14.00
14.89, 697.56, 52.62, 2.52, -192.76, 29.00
14.94, 865.42, 57.29, 13.28, -189.45, 85.00
15.00, 1077.78, 66.44, 26.79, -187.82, 153.00
15.05, 1292.86, 79.46, 37.78, -187.18, 202.00
15.11, 1421.74, 94.69, 45.11, -185.14, 128.00
15.17, 1421.40, 110.53, 43.97, -181.86, 9.00
15.22, 1291.96, 119.42, 27.71, -179.30, -53.00
15.28, 1076.58, 119.86, 3.21, -176.87, -239.00
15.33, 864.53, 112.02, -21.98, -172.98, -303.00
15.39, 694.04, 97.77, -40.53, -167.93, -245.00
15.44, 564.76, 81.66, -48.55, -161.12, -146.00
15.50, 491.91, 66.44, -45.34, -155.06, -70.00
15.55, 485.89, 55.88, -33.21, -149.65, -39.00
15.61, 547.56, 50.95, -16.03, -144.01, -15.00
15.66, 670.75, 50.78, -1.37, -138.06, 32.00
15.72, 833.53, 54.38, 9.85, -131.60, 105.00
15.78, 1060.69, 63.89, 25.88, -120.02, 183.00
15.84, 1279.99, 76.30, 36.64, -109.16, 247.00
15.89, 1415.22, 92.05, 46.03, -99.22, 142.00
15.94, 1430.84, 108.15, 48.55, -90.17, 10.00
16.00, 1322.76, 119.86, 35.95, -80.36, -48.00
16.06, 1119.36, 122.41, 10.08, -68.77, -261.00
16.11, 893.56, 115.98, -17.17, -56.52, -349.00
16.17, 721.92, 102.17, -39.39, -45.67, -267.00
16.22, 584.26, 85.01, -50.84, -35.00, -148.00
16.28, 500.26, 69.17, -48.09, -26.47, -90.00
16.33, 481.88, 57.90, -35.27, -18.76, -58.00
16.39, 539.52, 52.01, -16.49, -9.66, -26.00
16.45, 655.43, 51.83, -1.83, 0.43, 24.00
16.50, 814.83, 54.91, 8.24, 12.74, 87.00
16.56, 1007.63, 62.66, 21.76, 24.65, 133.00
16.61, 1238.02, 73.66, 32.98, 33.60, 222.00
16.67, 1397.25, 87.65, 40.76, 38.83, 219.00
16.72, 1437.92, 102.43, 43.97, 44.00, 75.00
16.78, 1353.02, 113.87, 35.27, 49.77, 6.00
16.83, 1164.86, 116.86, 10.99, 53.80, -96.00
16.89, 932.77, 111.76, -13.74, 62.39, -224.00
16.94, 756.90, 100.76, -31.83, 71.85, -229.00
17.00, 596.71, 84.48, -43.28, 78.38, -150.00
17.06, 505.17, 70.40, -42.59, 83.86, -120.00
17.11, 480.72, 60.37, -31.83, 91.66, -100.00
17.17, 524.70, 55.09, -16.72, 102.66, -50.00
17.22, 630.83, 54.38, -3.21, 114.24, 9.00
17.28, 783.95, 56.58, 5.95, 123.16, 52.00
17.33, 963.02, 62.74, 17.40, 128.81, 103.00
17.39, 1200.44, 73.22, 30.69, 132.34, 193.00
17.44, 1374.69, 86.42, 38.93, 134.53, 199.00
17.50, 1440.00, 101.02, 43.74, 135.94, 89.00
17.56, 1376.94, 113.08, 36.18, 136.27, 7.00
17.61, 1204.34, 117.83, 16.26, 133.72, -82.00
17.68, 912.53, 112.46, -14.20, 132.27, -283.00
17.74, 735.75, 101.90, -30.46, 131.60, -310.00
17.79, 594.29, 86.59, -44.43, 128.09, -165.00
17.85, 505.04, 71.10, -46.72, 123.92, -103.00
17.90, 480.94, 59.22, -36.41, 120.77, -70.00
17.96, 526.28, 53.33, -19.01, 117.86, -37.00
18.01, 633.55, 52.98, -2.52, 114.27, 12.00
18.07, 787.42, 56.14, 8.47, 108.31, 45.00
18.12, 972.62, 63.54, 21.07, 103.83, 93.00
18.18, 1208.70, 74.36, 32.29, 100.51, 180.00
18.23, 1379.43, 87.91, 39.39, 96.01, 178.00
18.30, 1438.92, 103.75, 42.82, 89.68, 60.00
18.35, 1360.05, 115.10, 34.81, 83.26, 5.00
18.41, 1176.08, 118.89, 13.05, 76.24, -121.00
18.46, 938.59, 114.93, -10.53, 70.39, -306.00
18.52, 762.19, 103.84, -31.14, 64.65, -272.00
18.57, 614.04, 88.26, -46.03, 55.57, -157.00
18.63, 515.28, 72.34, -47.86, 45.61, -99.00
18.68, 480.00, 59.75, -38.47, 37.60, -53.00
18.74, 514.49, 52.54, -22.67, 31.30, -26.00
18.79, 612.58, 50.69, -6.64, 25.80, 14.00
18.85, 760.28, 52.89, 5.72, 21.27, 61.00
18.91, 953.06, 60.19, 19.47, 16.99, 112.00
18.96, 1193.52, 70.05, 30.00, 12.37, 230.00
19.02, 1370.62, 83.60, 39.16, 6.53, 270.00
19.07, 1439.84, 98.56, 44.43, 2.66, 130.00
19.13, 1382.98, 111.14, 37.78, 0.87, 14.00
19.18, 1211.15, 116.25, 17.40, -2.20, -55.00
19.24, 975.48, 112.55, -8.93, -4.72, -196.00
19.29, 792.49, 102.26, -29.54, -7.17, -200.00
19.35, 637.55, 87.91, -42.37, -8.40, -157.00
19.40, 528.64, 74.01, -41.22, -7.56, -152.00
19.46, 481.08, 65.12, -28.40, -8.93, -245.00
19.53, 526.63, 59.58, -12.82, -14.13, -85.00
19.59, 634.14, 57.38, -7.10, -18.04, -15.00
19.64, 788.17, 58.43, 2.29, -23.07, 43.00
19.70, 969.19, 63.71, 14.89, -26.48, 115.00
19.75, 1205.76, 73.30, 27.71, -28.49, 202.00
19.81, 1379.97, 84.92, 34.58, -27.22, 486.00
19.86, 1439.96, 91.87, 21.76, -18.71, 360.00
19.92, 1373.85, 100.85, 26.56, -10.46, 101.00
19.98, 1199.01, 108.94, 24.50, -5.47, -42.00
20.03, 957.69, 111.50, 9.16, -0.45, -364.00
20.09, 779.75, 108.15, -8.93, -7.46, -537.00
20.14, 627.55, 97.86, -28.62, -19.63, -457.00
20.20, 516.23, 83.60, -39.16, -31.82, -368.00
20.26, 480.03, 71.72, -35.95, -40.38, -253.00
20.31, 512.35, 63.18, -27.02, -47.48, -119.00
20.37, 610.86, 58.78, -13.97, -52.84, -29.00
20.42, 758.00, 58.34, -2.29, -59.15, 46.00
20.48, 933.97, 60.98, 6.64, -56.13, 147.00
20.53, 1166.36, 68.20, 21.30, -48.01, 278.00
20.59, 1353.97, 81.14, 37.78, -34.86, 289.00
20.64, 1438.46, 96.80, 46.03, -22.99, 125.00
20.70, 1394.67, 110.18, 40.53, -21.60, 13.00
20.75, 1236.67, 117.39, 23.13, -26.23, -76.00
20.81, 978.91, 116.95, -0.92, -33.14, -352.00
20.87, 794.85, 110.53, -18.09, -47.48, -560.00
20.92, 639.41, 99.00, -33.21, -69.94, -355.00
20.98, 528.29, 82.10, -49.46, -85.66, -222.00
21.03, 481.25, 67.14, -45.34, -93.51, -113.00
21.09, 502.57, 57.20, -30.92, -94.17, -53.00
21.15, 589.20, 53.33, -13.28, -91.15, -14.00
21.20, 728.76, 53.68, 0.00, -85.79, 47.00
21.26, 904.63, 56.76, 8.70, -84.24, 170.00
21.31, 1129.42, 64.77, 22.67, -76.62, 276.00
21.37, 1329.67, 78.94, 40.99, -62.29, 222.00
21.43, 1436.18, 98.03, 52.90, -51.42, 75.00
21.48, 1403.56, 112.64, 44.20, -52.50, 4.00
21.54, 1254.41, 120.30, 24.27, -52.97, -100.00
21.59, 1027.90, 119.86, 0.92, -55.86, -323.00
21.65, 829.17, 113.43, -18.32, -69.31, -556.00
21.70, 667.15, 102.08, -32.06, -93.72, -377.00
21.76, 545.27, 85.45, -49.01, -113.97, -254.00
21.81, 485.21, 70.14, -46.26, -126.29, -145.00
21.87, 492.94, 59.58, -33.21, -132.45, -76.00
21.92, 567.35, 54.56, -16.26, -134.64, -19.00
21.98, 700.60, 54.12, -2.52, -135.04, 32.00
22.04, 885.31, 57.02, 7.56, -133.43, 147.00
22.09, 1108.59, 64.94, 22.44, -128.07, 240.00
22.15, 1315.21, 78.23, 38.70, -115.82, 228.00
22.20, 1428.50, 94.95, 49.24, -105.02, 125.00
22.26, 1418.70, 109.30, 43.74, -105.51, 25.00
22.31, 1288.38, 117.66, 26.56, -105.00, -43.00
22.37, 1071.79, 118.80, 5.04, -106.62, -251.00
22.42, 857.75, 113.70, -13.97, -116.56, -505.00
22.48, 691.03, 103.66, -29.08, -138.46, -410.00
22.53, 562.72, 87.82, -45.80, -157.70, -290.00
22.59, 491.12, 72.69, -45.34, -169.20, -181.00
22.65, 489.47, 60.98, -33.43, -176.02, -91.00
22.70, 558.26, 55.44, -17.63, -177.52, -30.00
22.76, 684.41, 54.65, -3.43, -176.82, 23.00
22.82, 849.91, 56.76, 5.50, -179.08, 120.00
22.87, 1061.10, 63.36, 19.24, -171.68, 215.00
22.93, 1280.30, 75.77, 35.72, -158.28, 236.00
22.98, 1415.35, 92.14, 48.55, -147.19, 131.00
23.04, 1430.76, 107.80, 46.26, -145.83, 33.00
23.09, 1319.51, 117.30, 30.00, -148.87, -25.00
23.15, 1114.70, 119.77, 9.39, -154.16, -229.00
23.20, 893.26, 114.66, -13.28, -154.51, -465.00
23.26, 704.58, 105.60, -24.73, -172.20, -467.00
23.32, 572.02, 89.94, -45.34, -193.92, -279.00
23.37, 494.05, 73.04, -49.92, -207.69, -144.00
23.43, 484.54, 60.63, -39.16, -214.97, -63.00
23.48, 542.91, 53.86, -21.30, -216.07, -24.00
23.54, 660.83, 52.71, -4.81, -215.46, 22.00
23.59, 821.46, 54.74, 5.72, -214.02, 115.00
23.65, 1021.52, 61.42, 18.55, -207.14, 196.00
23.70, 1249.30, 73.48, 35.49, -194.61, 235.00
23.76, 1401.07, 89.67, 48.09, -184.16, 135.00
23.82, 1433.87, 106.57, 46.49, -182.85, 47.00
23.88, 1333.75, 116.42, 30.46, -183.30, -11.00
23.93, 1135.42, 119.24, 10.53, -186.26, -190.00
23.99, 909.32, 115.28, -10.53, -200.01, -483.00
24.04, 732.91, 107.10, -23.36, -214.93, -450.00
24.10, 592.21, 91.96, -43.97, -236.21, -293.00
24.15, 504.02, 75.59, -48.32, -250.16, -185.00
24.21, 480.93, 63.27, -38.70, -258.76, -97.00
24.26, 527.67, 55.62, -23.59, -261.27, -35.00
24.32, 635.91, 53.42, -8.02, -262.01, 12.00
24.37, 790.43, 54.47, 2.75, -262.10, 93.00
24.46, 1110.16, 64.94, 23.13, -254.66, 218.00
24.51, 1316.32, 77.88, 36.87, -244.94, 264.00
24.57, 1428.86, 93.37, 46.49, -232.99, 144.00
24.62, 1416.84, 108.15, 43.74, -232.85, 30.00
24.68, 1283.85, 116.86, 27.71, -232.24, -44.00
24.73, 1065.78, 118.54, 6.64, -233.10, -274.00
24.79, 856.57, 113.43, -13.74, -242.53, -513.00
24.84, 687.30, 103.58, -28.40, -263.42, -417.00
24.90, 560.20, 87.56, -46.26, -282.13, -286.00
24.95, 490.18, 72.34, -46.03, -293.22, -166.00
25.01, 487.82, 60.90, -35.27, -298.82, -86.00
25.07, 560.76, 54.47, -18.32, -298.51, -20.00
25.13, 690.87, 53.59, -3.89, -296.19, 35.00
25.18, 857.55, 55.88, 5.95, -296.44, 137.00
25.24, 1067.12, 63.54, 21.76, -289.70, 211.00
25.29, 1288.19, 76.82, 38.93, -276.00, 212.00
25.35, 1418.62, 93.54, 49.46, -266.04, 110.00
25.40, 1428.56, 108.68, 45.57, -266.76, 29.00
25.46, 1312.33, 117.83, 28.40, -267.13, -30.00
25.51, 1104.54, 119.77, 7.33, -270.71, -229.00
25.57, 885.50, 114.84, -13.05, -288.40, -499.00
25.62, 714.88, 105.78, -26.34, -307.10, -421.00
25.68, 567.46, 88.09, -46.72, -327.54, -273.00
25.74, 492.23, 72.69, -46.49, -338.98, -177.00
25.80, 485.68, 61.60, -34.81, -345.19, -94.00
25.85, 546.85, 55.44, -19.24, -346.44, -32.00
25.91, 667.00, 54.47, -4.35, -345.51, 17.00
25.96, 832.18, 56.32, 5.04, -343.56, 113.00
26.02, 1032.12, 62.66, 17.63, -336.96, 201.00
26.07, 1257.76, 74.01, 33.66, -324.31, 240.00
26.13, 1405.17, 90.38, 47.63, -313.26, 156.00
26.18, 1435.00, 105.86, 46.72, -310.86, 48.00
26.24, 1338.35, 116.07, 31.37, -312.40, 5.00
26.30, 1121.17, 119.33, 9.85, -316.00, -209.00
26.35, 898.24, 115.02, -11.22, -333.46, -494.00
